# == pyFAI calibration ==
# Distance Sample to Detector: 0.13374 m
# PONI: 9.229e+03, 7.495e+03 m
# Rotations: -0.006361 -0.005243 0.000000 rad
# 
# == Fit2d calibration ==
# Distance Sample-beamCenter: 133.745 mm
# Center: x=166.904, y=170.566 pix
# Tilt: 0.472 deg  TiltPlanRot: -39.498 deg
# 
# Detector Detector	 Spline= /data/visitor/ma5619/id11/20230517/PROCESSED_DATA/CeO2/CeO2_hx0/frelon4m.spline	 PixelSize= 5.000e-05, 5.000e-05 m
#    Detector has a mask: True 
#    Detector has a dark current: True 
#    detector has a flat field: True 
# 
# Wavelength: 1.3840588113901603e-11 m
# Mask applied: from detector
# Dark current applied: from detector
# Flat field applied: from detector
# Polarization factor: 0.95
# Normalization factor: 1.0
# --> CeO2_hx0.dat
#        q_A^-1             I 
  1.007750e+00    5.901286e+03
  1.023250e+00    5.915417e+03
  1.038750e+00    5.900739e+03
  1.054250e+00    5.890693e+03
  1.069750e+00    5.886103e+03
  1.085250e+00    5.883832e+03
  1.100750e+00    5.880027e+03
  1.116250e+00    5.886165e+03
  1.131750e+00    5.878660e+03
  1.147250e+00    5.881175e+03
  1.162750e+00    5.884335e+03
  1.178250e+00    5.886795e+03
  1.193750e+00    5.888626e+03
  1.209250e+00    5.896782e+03
  1.224750e+00    5.913117e+03
  1.240250e+00    5.924095e+03
  1.255750e+00    5.932011e+03
  1.271250e+00    5.939329e+03
  1.286750e+00    5.955126e+03
  1.302250e+00    5.970576e+03
  1.317750e+00    5.991593e+03
  1.333250e+00    6.010584e+03
  1.348750e+00    6.043585e+03
  1.364250e+00    6.069256e+03
  1.379750e+00    6.097970e+03
  1.395250e+00    6.135061e+03
  1.410750e+00    6.175084e+03
  1.426250e+00    6.206215e+03
  1.441750e+00    6.240817e+03
  1.457250e+00    6.281855e+03
  1.472750e+00    6.326525e+03
  1.488250e+00    6.378763e+03
  1.503750e+00    6.434293e+03
  1.519250e+00    6.490020e+03
  1.534750e+00    6.556427e+03
  1.550250e+00    6.624027e+03
  1.565750e+00    6.697304e+03
  1.581250e+00    6.780650e+03
  1.596750e+00    6.870394e+03
  1.612250e+00    6.979730e+03
  1.627750e+00    7.107821e+03
  1.643250e+00    7.241486e+03
  1.658750e+00    7.383244e+03
  1.674250e+00    7.542382e+03
  1.689750e+00    7.744532e+03
  1.705250e+00    7.932540e+03
  1.720750e+00    8.167746e+03
  1.736250e+00    8.437821e+03
  1.751750e+00    8.758298e+03
  1.767250e+00    9.115362e+03
  1.782750e+00    9.504270e+03
  1.798250e+00    9.978700e+03
  1.813750e+00    1.050620e+04
  1.829250e+00    1.112414e+04
  1.844750e+00    1.183665e+04
  1.860250e+00    1.267003e+04
  1.875750e+00    1.365127e+04
  1.891250e+00    1.485033e+04
  1.906750e+00    1.635658e+04
  1.922250e+00    1.836759e+04
  1.937750e+00    2.136061e+04
  1.953250e+00    2.685440e+04
  1.968750e+00    3.966041e+04
  1.984250e+00    7.432302e+04
  1.999750e+00    1.332463e+05
  2.015250e+00    1.415637e+05
  2.030750e+00    8.401014e+04
  2.046250e+00    4.316055e+04
  2.061750e+00    2.793329e+04
  2.077250e+00    2.205007e+04
  2.092750e+00    1.898863e+04
  2.108250e+00    1.700996e+04
  2.123750e+00    1.557743e+04
  2.139250e+00    1.456327e+04
  2.154750e+00    1.370651e+04
  2.170250e+00    1.310999e+04
  2.185750e+00    1.269136e+04
  2.201250e+00    1.239866e+04
  2.216750e+00    1.228462e+04
  2.232250e+00    1.237866e+04
  2.247750e+00    1.280557e+04
  2.263250e+00    1.390579e+04
  2.278750e+00    1.715032e+04
  2.294250e+00    2.649418e+04
  2.309750e+00    4.240724e+04
  2.325250e+00    4.531335e+04
  2.340750e+00    2.995164e+04
  2.356250e+00    1.773069e+04
  2.371750e+00    1.287374e+04
  2.387250e+00    1.094740e+04
  2.402750e+00    9.866454e+03
  2.418250e+00    9.151249e+03
  2.433750e+00    8.627326e+03
  2.449250e+00    8.200842e+03
  2.464750e+00    7.841180e+03
  2.480250e+00    7.521099e+03
  2.495750e+00    7.260387e+03
  2.511250e+00    7.036636e+03
  2.526750e+00    6.839328e+03
  2.542250e+00    6.683251e+03
  2.557750e+00    6.530334e+03
  2.573250e+00    6.403038e+03
  2.588750e+00    6.288468e+03
  2.604250e+00    6.182073e+03
  2.619750e+00    6.096322e+03
  2.635250e+00    6.020415e+03
  2.650750e+00    5.957138e+03
  2.666250e+00    5.896517e+03
  2.681750e+00    5.854191e+03
  2.697250e+00    5.823516e+03
  2.712750e+00    5.785887e+03
  2.728250e+00    5.763798e+03
  2.743750e+00    5.741291e+03
  2.759250e+00    5.732886e+03
  2.774750e+00    5.731944e+03
  2.790250e+00    5.726859e+03
  2.805750e+00    5.741465e+03
  2.821250e+00    5.754620e+03
  2.836750e+00    5.786767e+03
  2.852250e+00    5.815722e+03
  2.867750e+00    5.852738e+03
  2.883250e+00    5.895942e+03
  2.898750e+00    5.946239e+03
  2.914250e+00    6.007569e+03
  2.929750e+00    6.095575e+03
  2.945250e+00    6.192171e+03
  2.960750e+00    6.300117e+03
  2.976250e+00    6.408501e+03
  2.991750e+00    6.543119e+03
  3.007250e+00    6.698831e+03
  3.022750e+00    6.889477e+03
  3.038250e+00    7.108822e+03
  3.053750e+00    7.347598e+03
  3.069250e+00    7.643103e+03
  3.084750e+00    7.945508e+03
  3.100250e+00    8.331735e+03
  3.115750e+00    8.761993e+03
  3.131250e+00    9.259092e+03
  3.146750e+00    9.858071e+03
  3.162250e+00    1.056617e+04
  3.177750e+00    1.145954e+04
  3.193250e+00    1.261203e+04
  3.208750e+00    1.440819e+04
  3.224250e+00    1.763162e+04
  3.239750e+00    2.517302e+04
  3.255250e+00    4.476333e+04
  3.270750e+00    7.874832e+04
  3.286250e+00    8.977914e+04
  3.301750e+00    6.079529e+04
  3.317250e+00    3.243454e+04
  3.332750e+00    2.015920e+04
  3.348250e+00    1.562130e+04
  3.363750e+00    1.338964e+04
  3.379250e+00    1.204271e+04
  3.394750e+00    1.103820e+04
  3.410250e+00    1.028503e+04
  3.425750e+00    9.681305e+03
  3.441250e+00    9.193998e+03
  3.456750e+00    8.796037e+03
  3.472250e+00    8.456354e+03
  3.487750e+00    8.185505e+03
  3.503250e+00    7.996961e+03
  3.518750e+00    7.825713e+03
  3.534250e+00    7.695584e+03
  3.549750e+00    7.613948e+03
  3.565250e+00    7.579073e+03
  3.580750e+00    7.585869e+03
  3.596250e+00    7.615429e+03
  3.611750e+00    7.682687e+03
  3.627250e+00    7.783878e+03
  3.642750e+00    7.960736e+03
  3.658250e+00    8.154189e+03
  3.673750e+00    8.428406e+03
  3.689250e+00    8.766979e+03
  3.704750e+00    9.166429e+03
  3.720250e+00    9.664797e+03
  3.735750e+00    1.028253e+04
  3.751250e+00    1.109305e+04
  3.766750e+00    1.218986e+04
  3.782250e+00    1.397108e+04
  3.797750e+00    1.756708e+04
  3.813250e+00    2.675450e+04
  3.828750e+00    4.951878e+04
  3.844250e+00    7.803950e+04
  3.859750e+00    7.146208e+04
  3.875250e+00    4.189147e+04
  3.890750e+00    2.374304e+04
  3.906250e+00    1.665016e+04
  3.921750e+00    1.385087e+04
  3.937250e+00    1.249550e+04
  3.952750e+00    1.178872e+04
  3.968250e+00    1.161901e+04
  3.983750e+00    1.270692e+04
  3.999250e+00    1.654108e+04
  4.014750e+00    2.158159e+04
  4.030250e+00    2.037060e+04
  4.045750e+00    1.443622e+04
  4.061250e+00    1.039734e+04
  4.076750e+00    8.723900e+03
  4.092250e+00    7.929500e+03
  4.107750e+00    7.430189e+03
  4.123250e+00    7.074948e+03
  4.138750e+00    6.793064e+03
  4.154250e+00    6.555772e+03
  4.169750e+00    6.348915e+03
  4.185250e+00    6.184381e+03
  4.200750e+00    6.041027e+03
  4.216250e+00    5.930989e+03
  4.231750e+00    5.833693e+03
  4.247250e+00    5.724499e+03
  4.262750e+00    5.644978e+03
  4.278250e+00    5.569150e+03
  4.293750e+00    5.519909e+03
  4.309250e+00    5.481217e+03
  4.324750e+00    5.441997e+03
  4.340250e+00    5.414513e+03
  4.355750e+00    5.396249e+03
  4.371250e+00    5.378368e+03
  4.386750e+00    5.369748e+03
  4.402250e+00    5.370434e+03
  4.417750e+00    5.386997e+03
  4.433250e+00    5.408607e+03
  4.448750e+00    5.438472e+03
  4.464250e+00    5.471963e+03
  4.479750e+00    5.522309e+03
  4.495250e+00    5.601545e+03
  4.510750e+00    5.689801e+03
  4.526250e+00    5.801466e+03
  4.541750e+00    5.955049e+03
  4.557250e+00    6.159457e+03
  4.572750e+00    6.467194e+03
  4.588250e+00    7.046985e+03
  4.603750e+00    8.514721e+03
  4.619250e+00    1.256939e+04
  4.634750e+00    1.891146e+04
  4.650250e+00    1.936598e+04
  4.665750e+00    1.353349e+04
  4.681250e+00    9.141107e+03
  4.696750e+00    7.378787e+03
  4.712250e+00    6.725521e+03
  4.727750e+00    6.415168e+03
  4.743250e+00    6.230817e+03
  4.758750e+00    6.114507e+03
  4.774250e+00    6.043342e+03
  4.789750e+00    6.002502e+03
  4.805250e+00    5.986917e+03
  4.820750e+00    5.996934e+03
  4.836250e+00    6.037999e+03
  4.851750e+00    6.106463e+03
  4.867250e+00    6.189066e+03
  4.882750e+00    6.311706e+03
  4.898250e+00    6.470366e+03
  4.913750e+00    6.654224e+03
  4.929250e+00    6.898744e+03
  4.944750e+00    7.205138e+03
  4.960250e+00    7.592347e+03
  4.975750e+00    8.104218e+03
  4.991250e+00    8.877569e+03
  5.006750e+00    1.037714e+04
  5.022250e+00    1.414637e+04
  5.037750e+00    2.406520e+04
  5.053250e+00    3.760135e+04
  5.068750e+00    3.643892e+04
  5.084250e+00    2.367750e+04
  5.099750e+00    1.499238e+04
  5.115250e+00    1.176746e+04
  5.130750e+00    1.101028e+04
  5.146250e+00    1.176115e+04
  5.161750e+00    1.534362e+04
  5.177250e+00    2.351779e+04
  5.192750e+00    2.846755e+04
  5.208250e+00    2.180706e+04
  5.223750e+00    1.387905e+04
  5.239250e+00    1.002466e+04
  5.254750e+00    8.522140e+03
  5.270250e+00    7.771619e+03
  5.285750e+00    7.303958e+03
  5.301250e+00    6.982849e+03
  5.316750e+00    6.714153e+03
  5.332250e+00    6.506979e+03
  5.347750e+00    6.350151e+03
  5.363250e+00    6.220679e+03
  5.378750e+00    6.121462e+03
  5.394250e+00    6.047839e+03
  5.409750e+00    5.989972e+03
  5.425250e+00    5.953232e+03
  5.440750e+00    5.939132e+03
  5.456250e+00    5.954486e+03
  5.471750e+00    5.979242e+03
  5.487250e+00    6.021963e+03
  5.502750e+00    6.092373e+03
  5.518250e+00    6.182474e+03
  5.533750e+00    6.304661e+03
  5.549250e+00    6.466295e+03
  5.564750e+00    6.672525e+03
  5.580250e+00    6.928576e+03
  5.595750e+00    7.295806e+03
  5.611250e+00    7.826068e+03
  5.626750e+00    8.740202e+03
  5.642250e+00    1.091184e+04
  5.657750e+00    1.687798e+04
  5.673250e+00    2.898407e+04
  5.688750e+00    3.545839e+04
  5.704250e+00    2.658195e+04
  5.719750e+00    1.592577e+04
  5.735250e+00    1.075052e+04
  5.750750e+00    8.782193e+03
  5.766250e+00    7.910570e+03
  5.781750e+00    7.424322e+03
  5.797250e+00    7.097910e+03
  5.812750e+00    6.873474e+03
  5.828250e+00    6.698781e+03
  5.843750e+00    6.587741e+03
  5.859250e+00    6.534308e+03
  5.874750e+00    6.528762e+03
  5.890250e+00    6.548306e+03
  5.905750e+00    6.628498e+03
  5.921250e+00    6.780259e+03
  5.936750e+00    6.994185e+03
  5.952250e+00    7.334452e+03
  5.967750e+00    7.949814e+03
  5.983250e+00    9.314070e+03
  5.998750e+00    1.309450e+04
  6.014250e+00    2.203536e+04
  6.029750e+00    3.016259e+04
  6.045250e+00    2.556631e+04
  6.060750e+00    1.578752e+04
  6.076250e+00    1.026997e+04
  6.091750e+00    8.196954e+03
  6.107250e+00    7.307645e+03
  6.122750e+00    6.813123e+03
  6.138250e+00    6.463870e+03
  6.153750e+00    6.195972e+03
  6.169250e+00    5.998355e+03
  6.184750e+00    5.832414e+03
  6.200250e+00    5.680645e+03
  6.215750e+00    5.565808e+03
  6.231250e+00    5.474153e+03
  6.246750e+00    5.401423e+03
  6.262250e+00    5.343275e+03
  6.277750e+00    5.290851e+03
  6.293250e+00    5.250148e+03
  6.308750e+00    5.219536e+03
  6.324250e+00    5.203340e+03
  6.339750e+00    5.200780e+03
  6.355250e+00    5.202931e+03
  6.370750e+00    5.209657e+03
  6.386250e+00    5.231741e+03
  6.401750e+00    5.270101e+03
  6.417250e+00    5.305615e+03
  6.432750e+00    5.356525e+03
  6.448250e+00    5.428946e+03
  6.463750e+00    5.513064e+03
  6.479250e+00    5.640293e+03
  6.494750e+00    5.836726e+03
  6.510250e+00    6.195160e+03
  6.525750e+00    7.033703e+03
  6.541250e+00    9.251754e+03
  6.556750e+00    1.303072e+04
  6.572250e+00    1.399023e+04
  6.587750e+00    1.083019e+04
  6.603250e+00    7.954239e+03
  6.618750e+00    6.733088e+03
  6.634250e+00    6.295896e+03
  6.649750e+00    6.122313e+03
  6.665250e+00    6.067400e+03
  6.680750e+00    6.054298e+03
  6.696250e+00    6.087862e+03
  6.711750e+00    6.155278e+03
  6.727250e+00    6.259679e+03
  6.742750e+00    6.422815e+03
  6.758250e+00    6.647490e+03
  6.773750e+00    6.932645e+03
  6.789250e+00    7.336704e+03
  6.804750e+00    8.039737e+03
  6.820250e+00    9.513516e+03
  6.835750e+00    1.342864e+04
  6.851250e+00    2.234073e+04
  6.866750e+00    2.985084e+04
  6.882250e+00    2.504219e+04
  6.897750e+00    1.613443e+04
  6.913250e+00    1.157592e+04
  6.928750e+00    1.096203e+04
  6.944250e+00    1.337214e+04
  6.959750e+00    1.699469e+04
  6.975250e+00    1.617597e+04
  6.990750e+00    1.166792e+04
  7.006250e+00    8.648063e+03
  7.021750e+00    7.395331e+03
  7.037250e+00    6.831917e+03
  7.052750e+00    6.500519e+03
  7.068250e+00    6.256692e+03
  7.083750e+00    6.075506e+03
  7.099250e+00    5.938775e+03
  7.114750e+00    5.831261e+03
  7.130250e+00    5.751063e+03
  7.145750e+00    5.698704e+03
  7.161250e+00    5.664865e+03
  7.176750e+00    5.644734e+03
  7.192250e+00    5.648825e+03
  7.207750e+00    5.682821e+03
  7.223250e+00    5.741023e+03
  7.238750e+00    5.831838e+03
  7.254250e+00    5.961043e+03
  7.269750e+00    6.180612e+03
  7.285250e+00    6.587137e+03
  7.300750e+00    7.609928e+03
  7.316250e+00    1.046659e+04
  7.331750e+00    1.540096e+04
  7.347250e+00    1.704236e+04
  7.362750e+00    1.283799e+04
  7.378250e+00    8.777225e+03
  7.393750e+00    7.058949e+03
  7.409250e+00    6.408772e+03
  7.424750e+00    6.100493e+03
  7.440250e+00    5.923274e+03
  7.455750e+00    5.825501e+03
  7.471250e+00    5.760581e+03
  7.486750e+00    5.739992e+03
  7.502250e+00    5.751418e+03
  7.517750e+00    5.807354e+03
  7.533250e+00    5.917208e+03
  7.548750e+00    6.128008e+03
  7.564250e+00    6.600828e+03
  7.579750e+00    7.907301e+03
  7.595250e+00    1.086256e+04
  7.610750e+00    1.349573e+04
  7.626250e+00    1.226180e+04
  7.641750e+00    9.300817e+03
  7.657250e+00    7.856918e+03
  7.672750e+00    8.375954e+03
  7.688250e+00    1.045853e+04
  7.703750e+00    1.148292e+04
  7.719250e+00    9.568944e+03
  7.734750e+00    7.299260e+03
  7.750250e+00    6.233519e+03
  7.765750e+00    5.792844e+03
  7.781250e+00    5.570133e+03
  7.796750e+00    5.426107e+03
  7.812250e+00    5.324562e+03
  7.827750e+00    5.249536e+03
  7.843250e+00    5.178964e+03
  7.858750e+00    5.138715e+03
  7.874250e+00    5.104832e+03
  7.889750e+00    5.075321e+03
  7.905250e+00    5.064477e+03
  7.920750e+00    5.064645e+03
  7.936250e+00    5.072675e+03
  7.951750e+00    5.097620e+03
  7.967250e+00    5.148238e+03
  7.982750e+00    5.231537e+03
  7.998250e+00    5.435757e+03
  8.013750e+00    5.981872e+03
  8.029250e+00    7.049236e+03
  8.044750e+00    7.750113e+03
  8.060250e+00    7.065604e+03
  8.075750e+00    6.075732e+03
  8.091250e+00    5.582609e+03
  8.106750e+00    5.421415e+03
  8.122250e+00    5.385879e+03
  8.137750e+00    5.401556e+03
  8.153250e+00    5.454585e+03
  8.168750e+00    5.531815e+03
  8.184250e+00    5.641507e+03
  8.199750e+00    5.792675e+03
  8.215250e+00    6.026536e+03
  8.230750e+00    6.424432e+03
  8.246250e+00    7.310808e+03
  8.261750e+00    9.649576e+03
  8.277250e+00    1.427634e+04
  8.292750e+00    1.714677e+04
  8.308250e+00    1.430564e+04
  8.323750e+00    1.016003e+04
  8.339250e+00    8.625390e+03
  8.354750e+00    9.326313e+03
  8.370250e+00    1.032441e+04
  8.385750e+00    9.444245e+03
  8.401250e+00    7.600732e+03
  8.416750e+00    6.492686e+03
  8.432250e+00    6.043007e+03
  8.447750e+00    5.829415e+03
  8.463250e+00    5.701547e+03
  8.478750e+00    5.629331e+03
  8.494250e+00    5.581291e+03
  8.509750e+00    5.556367e+03
  8.525250e+00    5.556645e+03
  8.540750e+00    5.581937e+03
  8.556250e+00    5.633649e+03
  8.571750e+00    5.710955e+03
  8.587250e+00    5.826595e+03
  8.602750e+00    5.997111e+03
  8.618250e+00    6.266183e+03
  8.633750e+00    6.796465e+03
  8.649250e+00    8.134824e+03
  8.664750e+00    1.153071e+04
  8.680250e+00    1.629901e+04
  8.695750e+00    1.687115e+04
  8.711250e+00    1.251426e+04
  8.726750e+00    8.776000e+03
  8.742250e+00    7.203828e+03
  8.757750e+00    6.621663e+03
  8.773250e+00    6.360203e+03
  8.788750e+00    6.242521e+03
  8.804250e+00    6.201191e+03
  8.819750e+00    6.232249e+03
  8.835250e+00    6.344089e+03
  8.850750e+00    6.592431e+03
  8.866250e+00    7.184742e+03
  8.881750e+00    8.845370e+03
  8.897250e+00    1.292233e+04
  8.912750e+00    1.757740e+04
  8.928250e+00    1.698081e+04
  8.943750e+00    1.196978e+04
  8.959250e+00    8.386754e+03
  8.974750e+00    6.893645e+03
  8.990250e+00    6.262928e+03
  9.005750e+00    5.926056e+03
  9.021250e+00    5.698151e+03
  9.036750e+00    5.528668e+03
  9.052250e+00    5.394891e+03
  9.067750e+00    5.279279e+03
  9.083250e+00    5.193369e+03
  9.098750e+00    5.131831e+03
  9.114250e+00    5.074267e+03
  9.129750e+00    5.027190e+03
  9.145250e+00    4.990988e+03
  9.160750e+00    4.962544e+03
  9.176250e+00    4.934583e+03
  9.191750e+00    4.924453e+03
  9.207250e+00    4.922434e+03
  9.222750e+00    4.945528e+03
  9.238250e+00    4.995111e+03
  9.253750e+00    5.158891e+03
  9.269250e+00    5.551742e+03
  9.284750e+00    5.948795e+03
  9.300250e+00    5.847255e+03
  9.315750e+00    5.394867e+03
  9.331250e+00    5.098667e+03
  9.346750e+00    5.004183e+03
  9.362250e+00    4.982844e+03
  9.377750e+00    4.996512e+03
  9.393250e+00    5.018609e+03
  9.408750e+00    5.063553e+03
  9.424250e+00    5.132531e+03
  9.439750e+00    5.263459e+03
  9.455250e+00    5.504490e+03
  9.470750e+00    6.104569e+03
  9.486250e+00    7.349063e+03
  9.501750e+00    8.444373e+03
  9.517250e+00    8.164383e+03
  9.532750e+00    7.387475e+03
  9.548250e+00    7.842583e+03
  9.563750e+00    9.453671e+03
  9.579250e+00    9.956042e+03
  9.594750e+00    8.384011e+03
  9.610250e+00    6.650670e+03
  9.625750e+00    5.805979e+03
  9.641250e+00    5.474882e+03
  9.656750e+00    5.310554e+03
  9.672250e+00    5.219670e+03
  9.687750e+00    5.164141e+03
  9.703250e+00    5.138648e+03
  9.718750e+00    5.129479e+03
  9.734250e+00    5.143881e+03
  9.749750e+00    5.179331e+03
  9.765250e+00    5.240863e+03
  9.780750e+00    5.351229e+03
  9.796250e+00    5.580516e+03
  9.811750e+00    6.167406e+03
  9.827250e+00    7.609852e+03
  9.842750e+00    9.659982e+03
  9.858250e+00    1.014793e+04
  9.873750e+00    8.415108e+03
  9.889250e+00    6.664650e+03
  9.904750e+00    5.881711e+03
  9.920250e+00    5.604821e+03
  9.935750e+00    5.500950e+03
  9.951250e+00    5.472204e+03
  9.966750e+00    5.494924e+03
  9.982250e+00    5.585735e+03
  9.997750e+00    5.815774e+03
  1.001325e+01    6.392029e+03
  1.002875e+01    7.873216e+03
  1.004425e+01    1.017264e+04
  1.005975e+01    1.102319e+04
  1.007525e+01    9.385463e+03
  1.009075e+01    7.679732e+03
  1.010625e+01    7.362823e+03
  1.012175e+01    7.452783e+03
  1.013725e+01    6.915450e+03
  1.015275e+01    6.072783e+03
  1.016825e+01    5.553883e+03
  1.018375e+01    5.323811e+03
  1.019925e+01    5.204334e+03
  1.021475e+01    5.129632e+03
  1.023025e+01    5.080871e+03
  1.024575e+01    5.058131e+03
  1.026125e+01    5.036113e+03
  1.027675e+01    5.041816e+03
  1.029225e+01    5.059765e+03
  1.030775e+01    5.094848e+03
  1.032325e+01    5.183795e+03
  1.033875e+01    5.394550e+03
  1.035425e+01    5.948901e+03
  1.036975e+01    6.983904e+03
  1.038525e+01    7.697202e+03
  1.040075e+01    7.196068e+03
  1.041625e+01    6.165912e+03
  1.043175e+01    5.576218e+03
  1.044725e+01    5.380070e+03
  1.046275e+01    5.330467e+03
  1.047825e+01    5.352317e+03
  1.049375e+01    5.428339e+03
  1.050925e+01    5.579902e+03
  1.052475e+01    5.902492e+03
  1.054025e+01    6.728732e+03
  1.055575e+01    8.632321e+03
  1.057125e+01    1.086604e+04
  1.058675e+01    1.102243e+04
  1.060225e+01    9.245569e+03
  1.061775e+01    8.282018e+03
  1.063325e+01    8.573072e+03
  1.064875e+01    8.399376e+03
  1.066425e+01    7.221832e+03
  1.067975e+01    6.114201e+03
  1.069525e+01    5.579536e+03
  1.071075e+01    5.329856e+03
  1.072625e+01    5.198367e+03
  1.074175e+01    5.107888e+03
  1.075725e+01    5.035165e+03
  1.077275e+01    4.996011e+03
  1.078825e+01    4.977721e+03
  1.080375e+01    4.969960e+03
  1.081925e+01    4.993939e+03
  1.083475e+01    5.070711e+03
  1.085025e+01    5.297037e+03
  1.086575e+01    5.852665e+03
  1.088125e+01    6.653412e+03
  1.089675e+01    6.908438e+03
  1.091225e+01    6.279377e+03
  1.092775e+01    5.526054e+03
  1.094325e+01    5.149953e+03
  1.095875e+01    5.018525e+03
  1.097425e+01    4.977591e+03
  1.098975e+01    4.975751e+03
  1.100525e+01    5.022646e+03
  1.102075e+01    5.152761e+03
  1.103625e+01    5.538370e+03
  1.105175e+01    6.471236e+03
  1.106725e+01    7.660713e+03
  1.108275e+01    7.851005e+03
  1.109825e+01    6.776418e+03
  1.111375e+01    5.691167e+03
  1.112925e+01    5.168393e+03
  1.114475e+01    4.956098e+03
  1.116025e+01    4.856262e+03
  1.117575e+01    4.794263e+03
  1.119125e+01    4.751114e+03
  1.120675e+01    4.720957e+03
  1.122225e+01    4.707632e+03
  1.123775e+01    4.696921e+03
  1.125325e+01    4.699292e+03
  1.126875e+01    4.712323e+03
  1.128425e+01    4.738646e+03
  1.129975e+01    4.774994e+03
  1.131525e+01    4.841086e+03
  1.133075e+01    5.005459e+03
  1.134625e+01    5.397167e+03
  1.136175e+01    6.065211e+03
  1.137725e+01    6.484901e+03
  1.139275e+01    6.144755e+03
  1.140825e+01    5.509620e+03
  1.142375e+01    5.147851e+03
  1.143925e+01    5.034172e+03
  1.145475e+01    5.027187e+03
  1.147025e+01    5.070670e+03
  1.148575e+01    5.178168e+03
  1.150125e+01    5.439525e+03
  1.151675e+01    6.083244e+03
  1.153225e+01    7.404365e+03
  1.154775e+01    8.726235e+03
  1.156325e+01    8.644534e+03
  1.157875e+01    7.492465e+03
  1.159425e+01    6.796820e+03
  1.160975e+01    6.609927e+03
  1.162525e+01    6.207073e+03
  1.164075e+01    5.651769e+03
  1.165625e+01    5.279816e+03
  1.167175e+01    5.114198e+03
  1.168725e+01    5.038368e+03
  1.170275e+01    5.011380e+03
  1.171825e+01    5.006003e+03
  1.173375e+01    5.026806e+03
  1.174925e+01    5.071388e+03
  1.176475e+01    5.149833e+03
  1.178025e+01    5.313168e+03
  1.179575e+01    5.728845e+03
  1.181125e+01    6.752549e+03
  1.182675e+01    8.397837e+03
  1.184225e+01    9.295489e+03
  1.185775e+01    8.362681e+03
  1.187325e+01    6.750672e+03
  1.188875e+01    5.811873e+03
  1.190425e+01    5.455841e+03
  1.191975e+01    5.326083e+03
  1.193525e+01    5.296391e+03
  1.195075e+01    5.369589e+03
  1.196625e+01    5.662974e+03
  1.198175e+01    6.431195e+03
  1.199725e+01    7.622858e+03
  1.201275e+01    8.240906e+03
  1.202825e+01    7.640555e+03
  1.204375e+01    6.788714e+03
  1.205925e+01    6.448898e+03
  1.207475e+01    6.158731e+03
  1.209025e+01    5.643026e+03
  1.210575e+01    5.199862e+03
  1.212125e+01    4.968664e+03
  1.213675e+01    4.846964e+03
  1.215225e+01    4.777348e+03
  1.216775e+01    4.718553e+03
  1.218325e+01    4.679350e+03
  1.219875e+01    4.646559e+03
  1.221425e+01    4.618584e+03
  1.222975e+01    4.601553e+03
  1.224525e+01    4.587554e+03
  1.226075e+01    4.577635e+03
  1.227625e+01    4.579559e+03
  1.229175e+01    4.584719e+03
  1.230725e+01    4.590476e+03
  1.232275e+01    4.599347e+03
  1.233825e+01    4.622266e+03
  1.235375e+01    4.658790e+03
  1.236925e+01    4.705400e+03
  1.238475e+01    4.780809e+03
  1.240025e+01    4.930771e+03
  1.241575e+01    5.281916e+03
  1.243125e+01    5.952660e+03
  1.244675e+01    6.599863e+03
  1.246225e+01    6.738141e+03
  1.247775e+01    6.638630e+03
  1.249325e+01    6.852176e+03
  1.250875e+01    6.907314e+03
  1.252425e+01    6.299812e+03
  1.253975e+01    5.526534e+03
  1.255525e+01    5.073614e+03
  1.257075e+01    4.885191e+03
  1.258625e+01    4.796611e+03
  1.260175e+01    4.751425e+03
  1.261725e+01    4.729644e+03
  1.263275e+01    4.734483e+03
  1.264825e+01    4.763467e+03
  1.266375e+01    4.859364e+03
  1.267925e+01    5.132985e+03
  1.269475e+01    5.747799e+03
  1.271025e+01    6.458066e+03
  1.272575e+01    6.568876e+03
  1.274125e+01    5.937743e+03
  1.275675e+01    5.257685e+03
  1.277225e+01    4.915396e+03
  1.278775e+01    4.789115e+03
  1.280325e+01    4.758990e+03
  1.281875e+01    4.788469e+03
  1.283425e+01    4.940566e+03
  1.284975e+01    5.329605e+03
  1.286525e+01    5.865546e+03
  1.288075e+01    6.041897e+03
  1.289625e+01    5.629885e+03
  1.291175e+01    5.084536e+03
  1.292725e+01    4.765949e+03
  1.294275e+01    4.623105e+03
  1.295825e+01    4.559362e+03
  1.297375e+01    4.524233e+03
  1.298925e+01    4.509012e+03
  1.300475e+01    4.487304e+03
  1.302025e+01    4.480368e+03
  1.303575e+01    4.480047e+03
  1.305125e+01    4.489193e+03
  1.306675e+01    4.498375e+03
  1.308225e+01    4.529230e+03
  1.309775e+01    4.607939e+03
  1.311325e+01    4.753666e+03
  1.312875e+01    4.908857e+03
  1.314425e+01    4.943625e+03
  1.315975e+01    4.842632e+03
  1.317525e+01    4.745938e+03
  1.319075e+01    4.729203e+03
  1.320625e+01    4.775007e+03
  1.322175e+01    4.888918e+03
  1.323725e+01    5.142604e+03
  1.325275e+01    5.743815e+03
  1.326825e+01    6.862322e+03
  1.328375e+01    7.908271e+03
  1.329925e+01    7.909521e+03
  1.331475e+01    7.118726e+03
  1.333025e+01    6.472257e+03
  1.334575e+01    6.065506e+03
  1.336125e+01    5.578217e+03
  1.337675e+01    5.153070e+03
  1.339225e+01    4.913960e+03
  1.340775e+01    4.804105e+03
  1.342325e+01    4.744537e+03
  1.343875e+01    4.719850e+03
  1.345425e+01    4.709324e+03
  1.346975e+01    4.730872e+03
  1.348525e+01    4.810798e+03
  1.350075e+01    5.025807e+03
  1.351625e+01    5.471240e+03
  1.353175e+01    5.944219e+03
  1.354725e+01    5.987504e+03
  1.356275e+01    5.562434e+03
  1.357825e+01    5.100978e+03
  1.359375e+01    4.873485e+03
  1.360925e+01    4.805928e+03
  1.362475e+01    4.832067e+03
  1.364025e+01    4.966498e+03
  1.365575e+01    5.324454e+03
  1.367125e+01    5.917973e+03
  1.368675e+01    6.361607e+03
  1.370225e+01    6.294610e+03
  1.371775e+01    5.991050e+03
  1.373325e+01    5.772287e+03
  1.374875e+01    5.510139e+03
  1.376425e+01    5.135512e+03
  1.377975e+01    4.828461e+03
  1.379525e+01    4.673202e+03
  1.381075e+01    4.601993e+03
  1.382625e+01    4.558678e+03
  1.384175e+01    4.539980e+03
  1.385725e+01    4.536988e+03
  1.387275e+01    4.559350e+03
  1.388825e+01    4.641535e+03
  1.390375e+01    4.833648e+03
  1.391925e+01    5.098962e+03
  1.393475e+01    5.210266e+03
  1.395025e+01    5.054385e+03
  1.396575e+01    4.792637e+03
  1.398125e+01    4.629094e+03
  1.399675e+01    4.572299e+03
  1.401225e+01    4.583020e+03
  1.402775e+01    4.679186e+03
  1.404325e+01    4.927064e+03
  1.405875e+01    5.316860e+03
  1.407425e+01    5.585159e+03
  1.408975e+01    5.505210e+03
  1.410525e+01    5.253548e+03
  1.412075e+01    5.048931e+03
  1.413625e+01    4.861573e+03
  1.415175e+01    4.678815e+03
  1.416725e+01    4.548083e+03
  1.418275e+01    4.485272e+03
  1.419825e+01    4.468570e+03
  1.421375e+01    4.475081e+03
  1.422925e+01    4.495942e+03
  1.424475e+01    4.547512e+03
  1.426025e+01    4.677039e+03
  1.427575e+01    4.993049e+03
  1.429125e+01    5.534620e+03
  1.430675e+01    5.978043e+03
  1.432225e+01    5.907368e+03
  1.433775e+01    5.396136e+03
  1.435325e+01    4.929520e+03
  1.436875e+01    4.717861e+03
  1.438425e+01    4.671815e+03
  1.439975e+01    4.752531e+03
  1.441525e+01    5.032012e+03
  1.443075e+01    5.542065e+03
  1.444625e+01    5.977424e+03
  1.446175e+01    5.897690e+03
  1.447725e+01    5.373483e+03
  1.449275e+01    4.871245e+03
  1.450825e+01    4.596579e+03
  1.452375e+01    4.479471e+03
  1.453925e+01    4.415973e+03
  1.455475e+01    4.372422e+03
  1.457025e+01    4.347709e+03
  1.458575e+01    4.330076e+03
  1.460125e+01    4.321922e+03
  1.461675e+01    4.329460e+03
  1.463225e+01    4.362636e+03
  1.464775e+01    4.459677e+03
  1.466325e+01    4.618318e+03
  1.467875e+01    4.744415e+03
  1.469425e+01    4.705620e+03
  1.470975e+01    4.561463e+03
  1.472525e+01    4.435122e+03
  1.474075e+01    4.376734e+03
  1.475625e+01    4.375105e+03
  1.477175e+01    4.423692e+03
  1.478725e+01    4.532790e+03
  1.480275e+01    4.703228e+03
  1.481825e+01    4.901338e+03
  1.483375e+01    5.127939e+03
  1.484925e+01    5.389281e+03
  1.486475e+01    5.499538e+03
  1.488025e+01    5.286031e+03
  1.489575e+01    4.898146e+03
  1.491125e+01    4.609383e+03
  1.492675e+01    4.476312e+03
  1.494225e+01    4.423091e+03
  1.495775e+01    4.407094e+03
  1.497325e+01    4.409370e+03
  1.498875e+01    4.457092e+03
  1.500425e+01    4.587776e+03
  1.501975e+01    4.828919e+03
  1.503525e+01    5.080837e+03
  1.505075e+01    5.126739e+03
  1.506625e+01    4.934118e+03
  1.508175e+01    4.694602e+03
  1.509725e+01    4.570184e+03
  1.511275e+01    4.567943e+03
  1.512825e+01    4.687360e+03
  1.514375e+01    5.013935e+03
  1.515925e+01    5.541598e+03
  1.517475e+01    5.935085e+03
  1.519025e+01    5.852192e+03
  1.520575e+01    5.426750e+03
  1.522125e+01    5.016117e+03
  1.523675e+01    4.751109e+03
  1.525225e+01    4.566080e+03
  1.526775e+01    4.446477e+03
  1.528325e+01    4.385717e+03
  1.529875e+01    4.344064e+03
  1.531425e+01    4.327762e+03
  1.532975e+01    4.325031e+03
  1.534525e+01    4.345732e+03
  1.536075e+01    4.403576e+03
  1.537625e+01    4.518269e+03
  1.539175e+01    4.620207e+03
  1.540725e+01    4.618671e+03
  1.542275e+01    4.532629e+03
  1.543825e+01    4.450248e+03
  1.545375e+01    4.436337e+03
  1.546925e+01    4.499334e+03
  1.548475e+01    4.683389e+03
  1.550025e+01    5.078407e+03
  1.551575e+01    5.576408e+03
  1.553125e+01    5.853838e+03
  1.554675e+01    5.763063e+03
  1.556225e+01    5.495556e+03
  1.557775e+01    5.205067e+03
  1.559325e+01    4.888477e+03
  1.560875e+01    4.614247e+03
  1.562425e+01    4.437123e+03
  1.563975e+01    4.357473e+03
  1.565525e+01    4.318640e+03
  1.567075e+01    4.297956e+03
  1.568625e+01    4.312125e+03
  1.570175e+01    4.392185e+03
  1.571725e+01    4.559889e+03
  1.573275e+01    4.752089e+03
  1.574825e+01    4.798797e+03
  1.576375e+01    4.655064e+03
  1.577925e+01    4.444486e+03
  1.579475e+01    4.307391e+03
  1.581025e+01    4.261474e+03
  1.582575e+01    4.283007e+03
  1.584125e+01    4.382614e+03
  1.585675e+01    4.526671e+03
  1.587225e+01    4.594714e+03
  1.588775e+01    4.507544e+03
  1.590325e+01    4.341952e+03
  1.591875e+01    4.209439e+03
  1.593425e+01    4.142230e+03
  1.594975e+01    4.114496e+03
  1.596525e+01    4.093506e+03
  1.598075e+01    4.080268e+03
  1.599625e+01    4.075123e+03
  1.601175e+01    4.072542e+03
  1.602725e+01    4.077727e+03
  1.604275e+01    4.096207e+03
  1.605825e+01    4.125288e+03
  1.607375e+01    4.159833e+03
  1.608925e+01    4.172463e+03
  1.610475e+01    4.163356e+03
  1.612025e+01    4.153282e+03
  1.613575e+01    4.175114e+03
  1.615125e+01    4.233734e+03
  1.616675e+01    4.387069e+03
  1.618225e+01    4.670362e+03
  1.619775e+01    4.975808e+03
  1.621325e+01    5.109090e+03
  1.622875e+01    5.025624e+03
  1.624425e+01    4.846524e+03
  1.625975e+01    4.655318e+03
  1.627525e+01    4.461837e+03
  1.629075e+01    4.308473e+03
  1.630625e+01    4.239653e+03
  1.632175e+01    4.211052e+03
  1.633725e+01    4.213956e+03
  1.635275e+01    4.251667e+03
  1.636825e+01    4.356019e+03
  1.638375e+01    4.574646e+03
  1.639925e+01    4.854688e+03
  1.641475e+01    4.991278e+03
  1.643025e+01    4.858379e+03
  1.644575e+01    4.600740e+03
  1.646125e+01    4.405907e+03
  1.647675e+01    4.348301e+03
  1.649225e+01    4.406610e+03
  1.650775e+01    4.603720e+03
  1.652325e+01    4.865671e+03
  1.653875e+01    5.010433e+03
  1.655425e+01    4.955675e+03
  1.656975e+01    4.789790e+03
  1.658525e+01    4.595308e+03
  1.660075e+01    4.412338e+03
  1.661625e+01    4.267856e+03
  1.663175e+01    4.182211e+03
  1.664725e+01    4.136477e+03
  1.666275e+01    4.120520e+03
  1.667825e+01    4.117538e+03
  1.669375e+01    4.135792e+03
  1.670925e+01    4.189520e+03
  1.672475e+01    4.261664e+03
  1.674025e+01    4.296553e+03
  1.675575e+01    4.256960e+03
  1.677125e+01    4.195050e+03
  1.678675e+01    4.165082e+03
  1.680225e+01    4.181123e+03
  1.681775e+01    4.264413e+03
  1.683325e+01    4.424851e+03
  1.684875e+01    4.607552e+03
  1.686425e+01    4.735308e+03
  1.687975e+01    4.763598e+03
  1.689525e+01    4.692865e+03
  1.691075e+01    4.552728e+03
  1.692625e+01    4.385881e+03
  1.694175e+01    4.244957e+03
  1.695725e+01    4.172537e+03
  1.697275e+01    4.143436e+03
  1.698825e+01    4.155995e+03
  1.700375e+01    4.212565e+03
  1.701925e+01    4.351495e+03
  1.703475e+01    4.587838e+03
  1.705025e+01    4.792610e+03
  1.706575e+01    4.805384e+03
  1.708125e+01    4.608667e+03
  1.709675e+01    4.380774e+03
  1.711225e+01    4.256533e+03
  1.712775e+01    4.261254e+03
  1.714325e+01    4.369140e+03
  1.715875e+01    4.543153e+03
  1.717425e+01    4.642898e+03
  1.718975e+01    4.562211e+03
  1.720525e+01    4.369024e+03
  1.722075e+01    4.189493e+03
  1.723625e+01    4.092716e+03
  1.725175e+01    4.047710e+03
  1.726725e+01    4.024628e+03
  1.728275e+01    4.017391e+03
  1.729825e+01    4.018476e+03
  1.731375e+01    4.037500e+03
  1.732925e+01    4.086674e+03
  1.734475e+01    4.191341e+03
  1.736025e+01    4.291580e+03
  1.737575e+01    4.317038e+03
  1.739125e+01    4.249898e+03
  1.740675e+01    4.160089e+03
  1.742225e+01    4.114262e+03
  1.743775e+01    4.163757e+03
  1.745325e+01    4.320750e+03
  1.746875e+01    4.542731e+03
  1.748425e+01    4.707057e+03
  1.749975e+01    4.696802e+03
  1.751525e+01    4.552207e+03
  1.753075e+01    4.370772e+03
  1.754625e+01    4.204192e+03
  1.756175e+01    4.086847e+03
  1.757725e+01    4.013775e+03
  1.759275e+01    3.975802e+03
  1.760825e+01    3.953958e+03
  1.762375e+01    3.951092e+03
  1.763925e+01    3.971372e+03
  1.765475e+01    4.010527e+03
  1.767025e+01    4.042064e+03
  1.768575e+01    4.038602e+03
  1.770125e+01    4.002299e+03
  1.771675e+01    3.963848e+03
  1.773225e+01    3.956223e+03
  1.774775e+01    3.982941e+03
  1.776325e+01    4.056727e+03
  1.777875e+01    4.156878e+03
  1.779425e+01    4.250988e+03
  1.780975e+01    4.292571e+03
  1.782525e+01    4.274636e+03
  1.784075e+01    4.193813e+03
  1.785625e+01    4.079467e+03
  1.787175e+01    3.978995e+03
  1.788725e+01    3.919758e+03
  1.790275e+01    3.890446e+03
  1.791825e+01    3.872564e+03
  1.793375e+01    3.869338e+03
  1.794925e+01    3.863922e+03
  1.796475e+01    3.864537e+03
  1.798025e+01    3.867032e+03
  1.799575e+01    3.879284e+03
  1.801125e+01    3.892061e+03
  1.802675e+01    3.914046e+03
  1.804225e+01    3.970018e+03
  1.805775e+01    4.095872e+03
  1.807325e+01    4.267646e+03
  1.808875e+01    4.417856e+03
  1.810425e+01    4.466002e+03
  1.811975e+01    4.413814e+03
  1.813525e+01    4.290544e+03
  1.815075e+01    4.160816e+03
  1.816625e+01    4.051775e+03
  1.818175e+01    3.984150e+03
  1.819725e+01    3.962051e+03
  1.821275e+01    3.972257e+03
  1.822825e+01    4.019405e+03
  1.824375e+01    4.131765e+03
  1.825925e+01    4.282809e+03
  1.827475e+01    4.384503e+03
  1.829025e+01    4.349140e+03
  1.830575e+01    4.225688e+03
  1.832125e+01    4.120213e+03
  1.833675e+01    4.106273e+03
  1.835225e+01    4.216556e+03
  1.836775e+01    4.412823e+03
  1.838325e+01    4.551736e+03
  1.839875e+01    4.507467e+03
  1.841425e+01    4.313114e+03
  1.842975e+01    4.107486e+03
  1.844525e+01    3.978791e+03
  1.846075e+01    3.917491e+03
  1.847625e+01    3.883880e+03
  1.849175e+01    3.864695e+03
  1.850725e+01    3.851680e+03
  1.852275e+01    3.844830e+03
  1.853825e+01    3.847343e+03
  1.855375e+01    3.847572e+03
  1.856925e+01    3.855118e+03
  1.858475e+01    3.853458e+03
  1.860025e+01    3.859108e+03
  1.861575e+01    3.869279e+03
  1.863125e+01    3.922690e+03
  1.864675e+01    4.021309e+03
  1.866225e+01    4.155319e+03
  1.867775e+01    4.275081e+03
  1.869325e+01    4.324488e+03
  1.870875e+01    4.288049e+03
  1.872425e+01    4.185759e+03
  1.873975e+01    4.064932e+03
  1.875525e+01    3.958839e+03
  1.877075e+01    3.892628e+03
  1.878625e+01    3.872618e+03
  1.880175e+01    3.885277e+03
  1.881725e+01    3.941555e+03
  1.883275e+01    4.053069e+03
  1.884825e+01    4.150048e+03
  1.886375e+01    4.167152e+03
  1.887925e+01    4.084265e+03
  1.889475e+01    3.962831e+03
  1.891025e+01    3.886152e+03
  1.892575e+01    3.869418e+03
  1.894125e+01    3.893070e+03
  1.895675e+01    3.926737e+03
  1.897225e+01    3.941296e+03
  1.898775e+01    3.920340e+03
  1.900325e+01    3.874655e+03
  1.901875e+01    3.829698e+03
  1.903425e+01    3.793332e+03
  1.904975e+01    3.772665e+03
  1.906525e+01    3.761749e+03
  1.908075e+01    3.764637e+03
  1.909625e+01    3.781673e+03
  1.911175e+01    3.829391e+03
  1.912725e+01    3.881571e+03
  1.914275e+01    3.912335e+03
  1.915825e+01    3.897637e+03
  1.917375e+01    3.862835e+03
  1.918925e+01    3.840724e+03
  1.920475e+01    3.881205e+03
  1.922025e+01    3.986240e+03
  1.923575e+01    4.112621e+03
  1.925125e+01    4.197434e+03
  1.926675e+01    4.198726e+03
  1.928225e+01    4.126750e+03
  1.929775e+01    4.011865e+03
  1.931325e+01    3.899942e+03
  1.932875e+01    3.812887e+03
  1.934425e+01    3.764807e+03
  1.935975e+01    3.749782e+03
  1.937525e+01    3.756473e+03
  1.939075e+01    3.788542e+03
  1.940625e+01    3.824621e+03
  1.942175e+01    3.844825e+03
  1.943725e+01    3.821966e+03
  1.945275e+01    3.779436e+03
  1.946825e+01    3.751085e+03
  1.948375e+01    3.757914e+03
  1.949925e+01    3.797509e+03
  1.951475e+01    3.842073e+03
  1.953025e+01    3.845346e+03
  1.954575e+01    3.810228e+03
  1.956125e+01    3.748699e+03
  1.957675e+01    3.700601e+03
  1.959225e+01    3.676646e+03
  1.960775e+01    3.664715e+03
  1.962325e+01    3.666932e+03
  1.963875e+01    3.664960e+03
  1.965425e+01    3.677070e+03
  1.966975e+01    3.711783e+03
  1.968525e+01    3.746901e+03
  1.970075e+01    3.758448e+03
  1.971625e+01    3.748529e+03
  1.973175e+01    3.726581e+03
  1.974725e+01    3.731631e+03
  1.976275e+01    3.770758e+03
  1.977825e+01    3.845700e+03
  1.979375e+01    3.912976e+03
  1.980925e+01    3.936471e+03
  1.982475e+01    3.910200e+03
  1.984025e+01    3.847004e+03
  1.985575e+01    3.781214e+03
  1.987125e+01    3.737905e+03
  1.988675e+01    3.724794e+03
  1.990225e+01    3.722232e+03
  1.991775e+01    3.752348e+03
  1.993325e+01    3.824647e+03
  1.994875e+01    3.925649e+03
  1.996425e+01    3.989901e+03
  1.997975e+01    3.985825e+03
  1.999525e+01    3.919512e+03
  2.001075e+01    3.863633e+03
  2.002625e+01    3.878603e+03
  2.004175e+01    3.963753e+03
  2.005725e+01    4.081654e+03
  2.007275e+01    4.134743e+03
  2.008825e+01    4.092492e+03
  2.010375e+01    3.977792e+03
  2.011925e+01    3.858087e+03
  2.013475e+01    3.768481e+03
  2.015025e+01    3.709290e+03
  2.016575e+01    3.672596e+03
  2.018125e+01    3.660125e+03
  2.019675e+01    3.658199e+03
  2.021225e+01    3.667587e+03
  2.022775e+01    3.675044e+03
  2.024325e+01    3.674967e+03
  2.025875e+01    3.663109e+03
  2.027425e+01    3.653695e+03
  2.028975e+01    3.660591e+03
  2.030525e+01    3.695593e+03
  2.032075e+01    3.752721e+03
  2.033625e+01    3.812159e+03
  2.035175e+01    3.834760e+03
  2.036725e+01    3.819068e+03
  2.038275e+01    3.763556e+03
  2.039825e+01    3.696716e+03
  2.041375e+01    3.646508e+03
  2.042925e+01    3.619089e+03
  2.044475e+01    3.605783e+03
  2.046025e+01    3.616527e+03
  2.047575e+01    3.638143e+03
  2.049125e+01    3.658516e+03
  2.050675e+01    3.661379e+03
  2.052225e+01    3.651711e+03
  2.053775e+01    3.637832e+03
  2.055325e+01    3.644567e+03
  2.056875e+01    3.694502e+03
  2.058425e+01    3.757568e+03
  2.059975e+01    3.791313e+03
  2.061525e+01    3.763739e+03
  2.063075e+01    3.694066e+03
  2.064625e+01    3.623421e+03
  2.066175e+01    3.571823e+03
  2.067725e+01    3.551040e+03
  2.069275e+01    3.541145e+03
  2.070825e+01    3.533076e+03
  2.072375e+01    3.543673e+03
  2.073925e+01    3.555695e+03
  2.075475e+01    3.560565e+03
  2.077025e+01    3.565285e+03
  2.078575e+01    3.556693e+03
  2.080125e+01    3.556571e+03
  2.081675e+01    3.574724e+03
  2.083225e+01    3.623764e+03
  2.084775e+01    3.684092e+03
  2.086325e+01    3.735102e+03
  2.087875e+01    3.742517e+03
  2.089425e+01    3.709269e+03
  2.090975e+01    3.653936e+03
  2.092525e+01    3.598141e+03
  2.094075e+01    3.551462e+03
  2.095625e+01    3.530440e+03
  2.097175e+01    3.528621e+03
  2.098725e+01    3.544463e+03
  2.100275e+01    3.563131e+03
  2.101825e+01    3.576124e+03
  2.103375e+01    3.565729e+03
  2.104925e+01    3.546547e+03
  2.106475e+01    3.534608e+03
  2.108025e+01    3.543419e+03
  2.109575e+01    3.578173e+03
  2.111125e+01    3.615024e+03
  2.112675e+01    3.631519e+03
  2.114225e+01    3.626509e+03
  2.115775e+01    3.595210e+03
  2.117325e+01    3.551133e+03
  2.118875e+01    3.515010e+03
  2.120425e+01    3.501373e+03
  2.121975e+01    3.492577e+03
  2.123525e+01    3.499105e+03
  2.125075e+01    3.520958e+03
  2.126625e+01    3.532434e+03
  2.128175e+01    3.541040e+03
  2.129725e+01    3.539603e+03
  2.131275e+01    3.533035e+03
  2.132825e+01    3.548162e+03
  2.134375e+01    3.593038e+03
  2.135925e+01    3.648410e+03
  2.137475e+01    3.673241e+03
  2.139025e+01    3.655722e+03
  2.140575e+01    3.607408e+03
  2.142125e+01    3.551964e+03
  2.143675e+01    3.515693e+03
  2.145225e+01    3.494939e+03
  2.146775e+01    3.493967e+03
  2.148325e+01    3.516386e+03
  2.149875e+01    3.549738e+03
  2.151425e+01    3.597071e+03
  2.152975e+01    3.620955e+03
  2.154525e+01    3.600776e+03
  2.156075e+01    3.568603e+03
  2.157625e+01    3.541442e+03
  2.159175e+01    3.541261e+03
  2.160725e+01    3.561711e+03
  2.162275e+01    3.572063e+03
  2.163825e+01    3.549488e+03
  2.165375e+01    3.511169e+03
  2.166925e+01    3.470904e+03
  2.168475e+01    3.448371e+03
  2.170025e+01    3.434559e+03
  2.171575e+01    3.426964e+03
  2.173125e+01    3.427064e+03
  2.174675e+01    3.430806e+03
  2.176225e+01    3.433324e+03
  2.177775e+01    3.442627e+03
  2.179325e+01    3.441841e+03
  2.180875e+01    3.444063e+03
  2.182425e+01    3.458631e+03
  2.183975e+01    3.491462e+03
  2.185525e+01    3.531120e+03
  2.187075e+01    3.574766e+03
  2.188625e+01    3.601607e+03
  2.190175e+01    3.599026e+03
  2.191725e+01    3.552707e+03
  2.193275e+01    3.508199e+03
  2.194825e+01    3.471259e+03
  2.196375e+01    3.453430e+03
  2.197925e+01    3.466607e+03
  2.199475e+01    3.498376e+03
  2.201025e+01    3.523599e+03
  2.202575e+01    3.531837e+03
  2.204125e+01    3.516161e+03
  2.205675e+01    3.491385e+03
  2.207225e+01    3.472646e+03
  2.208775e+01    3.478146e+03
  2.210325e+01    3.500364e+03
  2.211875e+01    3.505801e+03
  2.213425e+01    3.494046e+03
  2.214975e+01    3.469981e+03
  2.216525e+01    3.432896e+03
  2.218075e+01    3.403303e+03
  2.219625e+01    3.381551e+03
  2.221175e+01    3.369818e+03
  2.222725e+01    3.359759e+03
  2.224275e+01    3.354261e+03
  2.225825e+01    3.353958e+03
  2.227375e+01    3.358703e+03
  2.228925e+01    3.364475e+03
  2.230475e+01    3.390707e+03
  2.232025e+01    3.424966e+03
  2.233575e+01    3.474525e+03
  2.235125e+01    3.520599e+03
  2.236675e+01    3.526904e+03
  2.238225e+01    3.498549e+03
  2.239775e+01    3.446301e+03
  2.241325e+01    3.399811e+03
  2.242875e+01    3.372265e+03
  2.244425e+01    3.360099e+03
  2.245975e+01    3.364373e+03
  2.247525e+01    3.384589e+03
  2.249075e+01    3.403895e+03
  2.250625e+01    3.408631e+03
  2.252175e+01    3.399356e+03
  2.253725e+01    3.380190e+03
  2.255275e+01    3.363786e+03
  2.256825e+01    3.361182e+03
  2.258375e+01    3.361946e+03
  2.259925e+01    3.362822e+03
  2.261475e+01    3.348121e+03
  2.263025e+01    3.327388e+03
  2.264575e+01    3.305332e+03
  2.266125e+01    3.299188e+03
  2.267675e+01    3.297719e+03
  2.269225e+01    3.294458e+03
  2.270775e+01    3.293363e+03
  2.272325e+01    3.298840e+03
  2.273875e+01    3.302375e+03
  2.275425e+01    3.306136e+03
  2.276975e+01    3.315780e+03
  2.278525e+01    3.315822e+03
  2.280075e+01    3.335706e+03
  2.281625e+01    3.356888e+03
  2.283175e+01    3.375573e+03
  2.284725e+01    3.382648e+03
  2.286275e+01    3.364675e+03
  2.287825e+01    3.337681e+03
  2.289375e+01    3.319338e+03
  2.290925e+01    3.304438e+03
  2.292475e+01    3.309510e+03
  2.294025e+01    3.319124e+03
  2.295575e+01    3.339897e+03
  2.297125e+01    3.358676e+03
  2.298675e+01    3.368965e+03
  2.300225e+01    3.364045e+03
  2.301775e+01    3.354705e+03
  2.303325e+01    3.368036e+03
  2.304875e+01    3.396732e+03
  2.306425e+01    3.420131e+03
  2.307975e+01    3.429370e+03
  2.309525e+01    3.401871e+03
  2.311075e+01    3.359055e+03
  2.312625e+01    3.323774e+03
  2.314175e+01    3.298478e+03
  2.315725e+01    3.281998e+03
  2.317275e+01    3.276463e+03
  2.318825e+01    3.272620e+03
  2.320375e+01    3.275940e+03
  2.321925e+01    3.278111e+03
  2.323475e+01    3.266952e+03
  2.325025e+01    3.267416e+03
  2.326575e+01    3.271264e+03
  2.328125e+01    3.293670e+03
  2.329675e+01    3.310255e+03
  2.331225e+01    3.327877e+03
  2.332775e+01    3.342135e+03
  2.334325e+01    3.328264e+03
  2.335875e+01    3.299800e+03
  2.337425e+01    3.272254e+03
  2.338975e+01    3.253336e+03
  2.340525e+01    3.249219e+03
  2.342075e+01    3.254363e+03
  2.343625e+01    3.255814e+03
  2.345175e+01    3.255985e+03
  2.346725e+01    3.251834e+03
  2.348275e+01    3.255455e+03
  2.349825e+01    3.265903e+03
  2.351375e+01    3.282187e+03
  2.352925e+01    3.290983e+03
  2.354475e+01    3.287497e+03
  2.356025e+01    3.266596e+03
  2.357575e+01    3.242749e+03
  2.359125e+01    3.225495e+03
  2.360675e+01    3.220530e+03
  2.362225e+01    3.224834e+03
  2.363775e+01    3.230308e+03
  2.365325e+01    3.236044e+03
  2.366875e+01    3.242556e+03
  2.368425e+01    3.250499e+03
  2.369975e+01    3.254981e+03
  2.371525e+01    3.263741e+03
  2.373075e+01    3.273500e+03
  2.374625e+01    3.308256e+03
  2.376175e+01    3.334220e+03
  2.377725e+01    3.329104e+03
  2.379275e+01    3.301393e+03
  2.380825e+01    3.261762e+03
  2.382375e+01    3.235551e+03
  2.383925e+01    3.214001e+03
  2.385475e+01    3.204885e+03
  2.387025e+01    3.204747e+03
  2.388575e+01    3.207044e+03
  2.390125e+01    3.211172e+03
  2.391675e+01    3.208280e+03
  2.393225e+01    3.198141e+03
  2.394775e+01    3.188458e+03
  2.396325e+01    3.188012e+03
  2.397875e+01    3.194141e+03
  2.399425e+01    3.198983e+03
  2.400975e+01    3.200305e+03
  2.402525e+01    3.188632e+03
  2.404075e+01    3.168347e+03
  2.405625e+01    3.161439e+03
  2.407175e+01    3.154634e+03
  2.408725e+01    3.156375e+03
  2.410275e+01    3.158297e+03
  2.411825e+01    3.152847e+03
  2.413375e+01    3.153799e+03
  2.414925e+01    3.155196e+03
  2.416475e+01    3.158184e+03
  2.418025e+01    3.164493e+03
  2.419575e+01    3.176009e+03
  2.421125e+01    3.187420e+03
  2.422675e+01    3.191565e+03
  2.424225e+01    3.182464e+03
  2.425775e+01    3.162331e+03
  2.427325e+01    3.146677e+03
  2.428875e+01    3.147815e+03
  2.430425e+01    3.154078e+03
  2.431975e+01    3.169553e+03
  2.433525e+01    3.176428e+03
  2.435075e+01    3.187586e+03
  2.436625e+01    3.180657e+03
  2.438175e+01    3.169816e+03
  2.439725e+01    3.160715e+03
  2.441275e+01    3.160620e+03
  2.442825e+01    3.161541e+03
  2.444375e+01    3.153473e+03
  2.445925e+01    3.139718e+03
  2.447475e+01    3.129288e+03
  2.449025e+01    3.106721e+03
  2.450575e+01    3.099244e+03
  2.452125e+01    3.100679e+03
  2.453675e+01    3.105695e+03
  2.455225e+01    3.099790e+03
  2.456775e+01    3.099707e+03
  2.458325e+01    3.104169e+03
  2.459875e+01    3.110663e+03
  2.461425e+01    3.124049e+03
  2.462975e+01    3.136929e+03
  2.464525e+01    3.154641e+03
  2.466075e+01    3.168180e+03
  2.467625e+01    3.161957e+03
  2.469175e+01    3.143161e+03
  2.470725e+01    3.127058e+03
  2.472275e+01    3.116001e+03
  2.473825e+01    3.111301e+03
  2.475375e+01    3.117132e+03
  2.476925e+01    3.117647e+03
  2.478475e+01    3.126131e+03
  2.480025e+01    3.128451e+03
  2.481575e+01    3.123092e+03
  2.483125e+01    3.124747e+03
  2.484675e+01    3.141514e+03
  2.486225e+01    3.153742e+03
  2.487775e+01    3.151306e+03
  2.489325e+01    3.140079e+03
  2.490875e+01    3.117108e+03
  2.492425e+01    3.101844e+03
  2.493975e+01    3.088499e+03
  2.495525e+01    3.086836e+03
  2.497075e+01    3.084213e+03
  2.498625e+01    3.087155e+03
  2.500175e+01    3.094372e+03
  2.501725e+01    3.098956e+03
  2.503275e+01    3.097958e+03
  2.504825e+01    3.097544e+03
  2.506375e+01    3.112551e+03
  2.507925e+01    3.129181e+03
  2.509475e+01    3.129304e+03
  2.511025e+01    3.117841e+03
  2.512575e+01    3.102956e+03
  2.514125e+01    3.085685e+03
  2.515675e+01    3.072120e+03
  2.517225e+01    3.062442e+03
  2.518775e+01    3.061113e+03
  2.520325e+01    3.068269e+03
  2.521875e+01    3.064696e+03
  2.523425e+01    3.062374e+03
  2.524975e+01    3.057814e+03
  2.526525e+01    3.057129e+03
  2.528075e+01    3.059422e+03
  2.529625e+01    3.059424e+03
  2.531175e+01    3.052855e+03
  2.532725e+01    3.044432e+03
  2.534275e+01    3.035870e+03
  2.535825e+01    3.026196e+03
  2.537375e+01    3.022051e+03
  2.538925e+01    3.019454e+03
  2.540475e+01    3.018903e+03
  2.542025e+01    3.024553e+03
  2.543575e+01    3.021994e+03
  2.545125e+01    3.017555e+03
  2.546675e+01    3.020548e+03
  2.548225e+01    3.026024e+03
  2.549775e+01    3.029906e+03
  2.551325e+01    3.030991e+03
  2.552875e+01    3.034372e+03
  2.554425e+01    3.031358e+03
  2.555975e+01    3.022594e+03
  2.557525e+01    3.009343e+03
  2.559075e+01    3.012007e+03
  2.560625e+01    3.015606e+03
  2.562175e+01    3.021998e+03
  2.563725e+01    3.016823e+03
  2.565275e+01    3.023296e+03
  2.566825e+01    3.022015e+03
  2.568375e+01    3.023537e+03
  2.569925e+01    3.023922e+03
  2.571475e+01    3.033705e+03
  2.573025e+01    3.031038e+03
  2.574575e+01    3.021403e+03
  2.576125e+01    3.008688e+03
  2.577675e+01    2.992008e+03
  2.579225e+01    2.979997e+03
  2.580775e+01    2.972824e+03
  2.582325e+01    2.968749e+03
  2.583875e+01    2.966340e+03
  2.585425e+01    2.966113e+03
  2.586975e+01    2.970313e+03
  2.588525e+01    2.966018e+03
  2.590075e+01    2.966815e+03
  2.591625e+01    2.976916e+03
  2.593175e+01    2.986084e+03
  2.594725e+01    2.983304e+03
  2.596275e+01    2.986158e+03
  2.597825e+01    2.979836e+03
  2.599375e+01    2.971400e+03
  2.600925e+01    2.959295e+03
  2.602475e+01    2.959569e+03
  2.604025e+01    2.972209e+03
  2.605575e+01    2.971590e+03
  2.607125e+01    2.964104e+03
  2.608675e+01    2.963509e+03
  2.610225e+01    2.961389e+03
  2.611775e+01    2.956425e+03
  2.613325e+01    2.942332e+03
  2.614875e+01    2.948316e+03
  2.616425e+01    2.940620e+03
  2.617975e+01    2.931706e+03
  2.619525e+01    2.923778e+03
  2.621075e+01    2.925693e+03
  2.622625e+01    2.923558e+03
  2.624175e+01    2.916694e+03
  2.625725e+01    2.916554e+03
  2.627275e+01    2.917282e+03
  2.628825e+01    2.921368e+03
  2.630375e+01    2.926114e+03
  2.631925e+01    2.929840e+03
  2.633475e+01    2.939902e+03
  2.635025e+01    2.947647e+03
  2.636575e+01    2.943784e+03
  2.638125e+01    2.936745e+03
  2.639675e+01    2.925319e+03
  2.641225e+01    2.923831e+03
  2.642775e+01    2.904793e+03
  2.644325e+01    2.906975e+03
  2.645875e+01    2.908027e+03
  2.647425e+01    2.907000e+03
  2.648975e+01    2.906496e+03
  2.650525e+01    2.910988e+03
  2.652075e+01    2.917315e+03
  2.653625e+01    2.915958e+03
  2.655175e+01    2.917374e+03
  2.656725e+01    2.921344e+03
  2.658275e+01    2.916056e+03
  2.659825e+01    2.899523e+03
  2.661375e+01    2.898151e+03
  2.662925e+01    2.892478e+03
  2.664475e+01    2.890926e+03
  2.666025e+01    2.884795e+03
  2.667575e+01    2.889978e+03
  2.669125e+01    2.890517e+03
  2.670675e+01    2.890330e+03
  2.672225e+01    2.899090e+03
  2.673775e+01    2.905741e+03
  2.675325e+01    2.906850e+03
  2.676875e+01    2.899400e+03
  2.678425e+01    2.892582e+03
  2.679975e+01    2.883633e+03
  2.681525e+01    2.881548e+03
  2.683075e+01    2.877456e+03
  2.684625e+01    2.877485e+03
  2.686175e+01    2.881678e+03
  2.687725e+01    2.883476e+03
  2.689275e+01    2.880865e+03
  2.690825e+01    2.883555e+03
  2.692375e+01    2.887570e+03
  2.693925e+01    2.876529e+03
  2.695475e+01    2.877895e+03
  2.697025e+01    2.874515e+03
  2.698575e+01    2.859915e+03
  2.700125e+01    2.850484e+03
  2.701675e+01    2.851084e+03
  2.703225e+01    2.842108e+03
  2.704775e+01    2.832948e+03
  2.706325e+01    2.839283e+03
  2.707875e+01    2.839570e+03
  2.709425e+01    2.831090e+03
  2.710975e+01    2.834835e+03
  2.712525e+01    2.840497e+03
  2.714075e+01    2.839596e+03
  2.715625e+01    2.836165e+03
  2.717175e+01    2.843037e+03
  2.718725e+01    2.837112e+03
  2.720275e+01    2.825500e+03
  2.721825e+01    2.827155e+03
  2.723375e+01    2.820922e+03
  2.724925e+01    2.821788e+03
  2.726475e+01    2.819487e+03
  2.728025e+01    2.816806e+03
  2.729575e+01    2.804965e+03
  2.731125e+01    2.796710e+03
  2.732675e+01    2.799001e+03
  2.734225e+01    2.812101e+03
  2.735775e+01    2.817923e+03
  2.737325e+01    2.816093e+03
  2.738875e+01    2.811073e+03
  2.740425e+01    2.807677e+03
  2.741975e+01    2.809807e+03
  2.743525e+01    2.804420e+03
  2.745075e+01    2.804604e+03
  2.746625e+01    2.802721e+03
  2.748175e+01    2.807997e+03
  2.749725e+01    2.809842e+03
  2.751275e+01    2.819428e+03
  2.752825e+01    2.825481e+03
  2.754375e+01    2.826242e+03
  2.755925e+01    2.821682e+03
  2.757475e+01    2.815265e+03
  2.759025e+01    2.809139e+03
  2.760575e+01    2.799660e+03
  2.762125e+01    2.790678e+03
  2.763675e+01    2.790273e+03
  2.765225e+01    2.795427e+03
  2.766775e+01    2.789192e+03
  2.768325e+01    2.785849e+03
  2.769875e+01    2.792447e+03
  2.771425e+01    2.793252e+03
  2.772975e+01    2.794016e+03
  2.774525e+01    2.793212e+03
  2.776075e+01    2.790715e+03
  2.777625e+01    2.783856e+03
  2.779175e+01    2.783210e+03
  2.780725e+01    2.779941e+03
  2.782275e+01    2.775380e+03
  2.783825e+01    2.776867e+03
  2.785375e+01    2.775102e+03
  2.786925e+01    2.778467e+03
  2.788475e+01    2.777707e+03
  2.790025e+01    2.780175e+03
  2.791575e+01    2.787748e+03
  2.793125e+01    2.793125e+03
  2.794675e+01    2.790423e+03
  2.796225e+01    2.787803e+03
  2.797775e+01    2.785009e+03
  2.799325e+01    2.776060e+03
  2.800875e+01    2.777392e+03
  2.802425e+01    2.779988e+03
  2.803975e+01    2.783430e+03
  2.805525e+01    2.784405e+03
  2.807075e+01    2.782095e+03
  2.808625e+01    2.775710e+03
  2.810175e+01    2.779660e+03
  2.811725e+01    2.779776e+03
  2.813275e+01    2.775518e+03
  2.814825e+01    2.771001e+03
  2.816375e+01    2.771844e+03
  2.817925e+01    2.760709e+03
  2.819475e+01    2.759661e+03
  2.821025e+01    2.752295e+03
  2.822575e+01    2.750306e+03
  2.824125e+01    2.753765e+03
  2.825675e+01    2.751886e+03
  2.827225e+01    2.753138e+03
  2.828775e+01    2.756954e+03
  2.830325e+01    2.759311e+03
  2.831875e+01    2.758671e+03
  2.833425e+01    2.756482e+03
  2.834975e+01    2.757892e+03
  2.836525e+01    2.754975e+03
  2.838075e+01    2.751776e+03
  2.839625e+01    2.741116e+03
  2.841175e+01    2.746071e+03
  2.842725e+01    2.746828e+03
  2.844275e+01    2.748054e+03
  2.845825e+01    2.741299e+03
  2.847375e+01    2.737911e+03
  2.848925e+01    2.739489e+03
  2.850475e+01    2.739198e+03
  2.852025e+01    2.734800e+03
  2.853575e+01    2.730156e+03
  2.855125e+01    2.729147e+03
  2.856675e+01    2.724674e+03
  2.858225e+01    2.723810e+03
  2.859775e+01    2.729037e+03
  2.861325e+01    2.731400e+03
  2.862875e+01    2.725116e+03
  2.864425e+01    2.729569e+03
  2.865975e+01    2.729691e+03
  2.867525e+01    2.731374e+03
  2.869075e+01    2.732748e+03
  2.870625e+01    2.734197e+03
  2.872175e+01    2.732007e+03
  2.873725e+01    2.727560e+03
  2.875275e+01    2.722324e+03
  2.876825e+01    2.721185e+03
  2.878375e+01    2.710837e+03
  2.879925e+01    2.710663e+03
  2.881475e+01    2.714832e+03
  2.883025e+01    2.713222e+03
  2.884575e+01    2.712891e+03
  2.886125e+01    2.713736e+03
  2.887675e+01    2.708850e+03
  2.889225e+01    2.707391e+03
  2.890775e+01    2.703427e+03
  2.892325e+01    2.698866e+03
  2.893875e+01    2.697986e+03
  2.895425e+01    2.692634e+03
  2.896975e+01    2.686805e+03
  2.898525e+01    2.685333e+03
  2.900075e+01    2.689559e+03
  2.901625e+01    2.688586e+03
  2.903175e+01    2.685848e+03
  2.904725e+01    2.685933e+03
  2.906275e+01    2.684216e+03
  2.907825e+01    2.688213e+03
  2.909375e+01    2.678060e+03
  2.910925e+01    2.676746e+03
  2.912475e+01    2.677225e+03
  2.914025e+01    2.679135e+03
  2.915575e+01    2.677171e+03
  2.917125e+01    2.674713e+03
  2.918675e+01    2.674261e+03
  2.920225e+01    2.677751e+03
  2.921775e+01    2.676021e+03
  2.923325e+01    2.675586e+03
  2.924875e+01    2.677741e+03
  2.926425e+01    2.675478e+03
  2.927975e+01    2.670878e+03
  2.929525e+01    2.665638e+03
  2.931075e+01    2.662555e+03
  2.932625e+01    2.658211e+03
  2.934175e+01    2.658175e+03
  2.935725e+01    2.659033e+03
  2.937275e+01    2.658520e+03
  2.938825e+01    2.655688e+03
  2.940375e+01    2.657624e+03
  2.941925e+01    2.659368e+03
  2.943475e+01    2.655550e+03
  2.945025e+01    2.659069e+03
  2.946575e+01    2.658552e+03
  2.948125e+01    2.648551e+03
  2.949675e+01    2.647902e+03
  2.951225e+01    2.649349e+03
  2.952775e+01    2.645118e+03
  2.954325e+01    2.642699e+03
  2.955875e+01    2.643005e+03
  2.957425e+01    2.646160e+03
  2.958975e+01    2.642963e+03
  2.960525e+01    2.647694e+03
  2.962075e+01    2.644649e+03
  2.963625e+01    2.643455e+03
  2.965175e+01    2.641050e+03
  2.966725e+01    2.638804e+03
  2.968275e+01    2.633927e+03
  2.969825e+01    2.632805e+03
  2.971375e+01    2.629134e+03
  2.972925e+01    2.629973e+03
  2.974475e+01    2.636372e+03
  2.976025e+01    2.633248e+03
  2.977575e+01    2.630444e+03
  2.979125e+01    2.633688e+03
  2.980675e+01    2.636393e+03
  2.982225e+01    2.630183e+03
  2.983775e+01    2.625374e+03
  2.985325e+01    2.623014e+03
  2.986875e+01    2.615275e+03
  2.988425e+01    2.620795e+03
  2.989975e+01    2.617676e+03
  2.991525e+01    2.615601e+03
  2.993075e+01    2.611711e+03
  2.994625e+01    2.610194e+03
  2.996175e+01    2.605176e+03
  2.997725e+01    2.608988e+03
  2.999275e+01    2.606235e+03
  3.000825e+01    2.598181e+03
  3.002375e+01    2.596481e+03
  3.003925e+01    2.595822e+03
  3.005475e+01    2.590673e+03
  3.007025e+01    2.594457e+03
  3.008575e+01    2.592065e+03
  3.010125e+01    2.591187e+03
  3.011675e+01    2.596223e+03
  3.013225e+01    2.597149e+03
  3.014775e+01    2.591869e+03
  3.016325e+01    2.590524e+03
  3.017875e+01    2.591277e+03
  3.019425e+01    2.589152e+03
  3.020975e+01    2.588735e+03
  3.022525e+01    2.584730e+03
  3.024075e+01    2.588980e+03
  3.025625e+01    2.586600e+03
  3.027175e+01    2.584642e+03
  3.028725e+01    2.580635e+03
  3.030275e+01    2.579261e+03
  3.031825e+01    2.577133e+03
  3.033375e+01    2.580157e+03
  3.034925e+01    2.579260e+03
  3.036475e+01    2.577864e+03
  3.038025e+01    2.576806e+03
  3.039575e+01    2.569882e+03
  3.041125e+01    2.568704e+03
  3.042675e+01    2.558909e+03
  3.044225e+01    2.560347e+03
  3.045775e+01    2.564324e+03
  3.047325e+01    2.562977e+03
  3.048875e+01    2.562144e+03
  3.050425e+01    2.564308e+03
  3.051975e+01    2.561815e+03
  3.053525e+01    2.560341e+03
  3.055075e+01    2.560709e+03
  3.056625e+01    2.556334e+03
  3.058175e+01    2.552961e+03
  3.059725e+01    2.550037e+03
  3.061275e+01    2.548600e+03
  3.062825e+01    2.549868e+03
  3.064375e+01    2.549782e+03
  3.065925e+01    2.547777e+03
  3.067475e+01    2.550622e+03
  3.069025e+01    2.546875e+03
  3.070575e+01    2.543821e+03
  3.072125e+01    2.541221e+03
  3.073675e+01    2.535989e+03
  3.075225e+01    2.528431e+03
  3.076775e+01    2.529478e+03
  3.078325e+01    2.529162e+03
  3.079875e+01    2.530448e+03
  3.081425e+01    2.528200e+03
  3.082975e+01    2.530083e+03
  3.084525e+01    2.529581e+03
  3.086075e+01    2.527582e+03
  3.087625e+01    2.525951e+03
  3.089175e+01    2.523694e+03
  3.090725e+01    2.526274e+03
  3.092275e+01    2.518481e+03
  3.093825e+01    2.517525e+03
  3.095375e+01    2.513089e+03
  3.096925e+01    2.515498e+03
  3.098475e+01    2.511173e+03
  3.100025e+01    2.508783e+03
  3.101575e+01    2.508674e+03
  3.103125e+01    2.507715e+03
  3.104675e+01    2.510528e+03
  3.106225e+01    2.509622e+03
  3.107775e+01    2.511313e+03
  3.109325e+01    2.513029e+03
  3.110875e+01    2.506887e+03
  3.112425e+01    2.501838e+03
  3.113975e+01    2.495410e+03
  3.115525e+01    2.499012e+03
  3.117075e+01    2.494361e+03
  3.118625e+01    2.496854e+03
  3.120175e+01    2.497330e+03
  3.121725e+01    2.489218e+03
  3.123275e+01    2.487368e+03
  3.124825e+01    2.485084e+03
  3.126375e+01    2.483616e+03
  3.127925e+01    2.489140e+03
  3.129475e+01    2.486626e+03
  3.131025e+01    2.479306e+03
  3.132575e+01    2.483699e+03
  3.134125e+01    2.478980e+03
  3.135675e+01    2.478580e+03
  3.137225e+01    2.481828e+03
  3.138775e+01    2.474316e+03
  3.140325e+01    2.467142e+03
  3.141875e+01    2.465986e+03
  3.143425e+01    2.460882e+03
  3.144975e+01    2.461142e+03
  3.146525e+01    2.462571e+03
  3.148075e+01    2.459676e+03
  3.149625e+01    2.458159e+03
  3.151175e+01    2.456773e+03
  3.152725e+01    2.450916e+03
  3.154275e+01    2.451452e+03
  3.155825e+01    2.454443e+03
  3.157375e+01    2.456395e+03
  3.158925e+01    2.456194e+03
  3.160475e+01    2.446634e+03
  3.162025e+01    2.440593e+03
  3.163575e+01    2.438877e+03
  3.165125e+01    2.436787e+03
  3.166675e+01    2.436606e+03
  3.168225e+01    2.433741e+03
  3.169775e+01    2.437304e+03
  3.171325e+01    2.435764e+03
  3.172875e+01    2.427575e+03
  3.174425e+01    2.424405e+03
  3.175975e+01    2.426107e+03
  3.177525e+01    2.420684e+03
  3.179075e+01    2.420203e+03
  3.180625e+01    2.418022e+03
  3.182175e+01    2.410909e+03
  3.183725e+01    2.404717e+03
  3.185275e+01    2.405724e+03
  3.186825e+01    2.405181e+03
  3.188375e+01    2.412087e+03
  3.189925e+01    2.411184e+03
  3.191475e+01    2.410654e+03
  3.193025e+01    2.404043e+03
  3.194575e+01    2.405282e+03
  3.196125e+01    2.398299e+03
  3.197675e+01    2.392696e+03
  3.199225e+01    2.386878e+03
